E_nu[MeV],Flux_per_MeV
1.80,0.768568
1.81,0.764633
1.82,0.760646
1.83,0.756613
1.84,0.752548
1.85,0.748464
1.86,0.744367
1.87,0.740257
1.88,0.736134
1.89,0.731965
1.90,0.727758
1.91,0.723505
1.92,0.7192
1.93,0.714863
1.94,0.710493
1.95,0.706085
1.96,0.701657
1.97,0.697203
1.98,0.692756
1.99,0.688296
2.00,0.683855
2.01,0.67944
2.02,0.675032
2.03,0.670636
2.04,0.666247
2.05,0.661871
2.06,0.657482
2.07,0.653074
2.08,0.648627
2.09,0.644111
2.10,0.639519
2.11,0.634831
2.12,0.630089
2.13,0.625316
2.14,0.620555
2.15,0.615847
2.16,0.611215
2.17,0.606638
2.18,0.602094
2.19,0.597559
2.20,0.593002
2.21,0.588407
2.22,0.583782
2.23,0.579132
2.24,0.574511
2.25,0.569906
2.26,0.565356
2.27,0.560841
2.28,0.55637
2.29,0.551938
2.30,0.547542
2.31,0.543182
2.32,0.538855
2.33,0.534575
2.34,0.530345
2.35,0.526179
2.36,0.522068
2.37,0.518012
2.38,0.514005
2.39,0.51002
2.40,0.506047
2.41,0.50209
2.42,0.498154
2.43,0.494264
2.44,0.490438
2.45,0.4867
2.46,0.483057
2.47,0.479518
2.48,0.476055
2.49,0.472665
2.50,0.469333
2.51,0.466045
2.52,0.462815
2.53,0.459636
2.54,0.456507
2.55,0.453431
2.56,0.450413
2.57,0.447437
2.58,0.444491
2.59,0.441557
2.60,0.43862
2.61,0.435683
2.62,0.432739
2.63,0.42981
2.64,0.426919
2.65,0.42407
2.66,0.421278
2.67,0.418535
2.68,0.415824
2.69,0.413144
2.70,0.410472
2.71,0.407807
2.72,0.405149
2.73,0.402483
2.74,0.399816
2.75,0.397151
2.76,0.394484
2.77,0.391816
2.78,0.389142
2.79,0.386463
2.80,0.383778
2.81,0.381083
2.82,0.378379
2.83,0.375665
2.84,0.372945
2.85,0.370222
2.86,0.367492
2.87,0.364764
2.88,0.362046
2.89,0.359351
2.90,0.356685
2.91,0.35405
2.92,0.351442
2.93,0.348854
2.94,0.346278
2.95,0.343702
2.96,0.341122
2.97,0.338545
2.98,0.335981
2.99,0.333439
3.00,0.330927
3.01,0.328453
3.02,0.326018
3.03,0.323629
3.04,0.321271
3.05,0.31896
3.06,0.316683
3.07,0.314439
3.08,0.312221
3.09,0.310022
3.10,0.307832
3.11,0.30565
3.12,0.303474
3.13,0.301302
3.14,0.299138
3.15,0.296982
3.16,0.29484
3.17,0.292707
3.18,0.290584
3.19,0.288476
3.20,0.286383
3.21,0.284302
3.22,0.282236
3.23,0.28017
3.24,0.278108
3.25,0.276043
3.26,0.273972
3.27,0.271897
3.28,0.269821
3.29,0.267739
3.30,0.265659
3.31,0.26358
3.32,0.261501
3.33,0.259424
3.34,0.257342
3.35,0.255254
3.36,0.253167
3.37,0.251075
3.38,0.248985
3.39,0.246901
3.40,0.244826
3.41,0.242759
3.42,0.240703
3.43,0.238659
3.44,0.236627
3.45,0.234596
3.46,0.232577
3.47,0.230567
3.48,0.228567
3.49,0.226583
3.50,0.224618
3.51,0.222667
3.52,0.220736
3.53,0.21883
3.54,0.216946
3.55,0.215088
3.56,0.213261
3.57,0.211448
3.58,0.209647
3.59,0.207845
3.60,0.206031
3.61,0.2042
3.62,0.202364
3.63,0.200529
3.64,0.198714
3.65,0.196932
3.66,0.195188
3.67,0.193483
3.68,0.191807
3.69,0.190152
3.70,0.188515
3.71,0.186889
3.72,0.185272
3.73,0.183665
3.74,0.18207
3.75,0.180488
3.76,0.178917
3.77,0.177356
3.78,0.175811
3.79,0.174274
3.80,0.172755
3.81,0.171245
3.82,0.169749
3.83,0.168257
3.84,0.166774
3.85,0.165289
3.86,0.163806
3.87,0.162327
3.88,0.160855
3.89,0.159399
3.90,0.157964
3.91,0.156551
3.92,0.155161
3.93,0.153782
3.94,0.152418
3.95,0.151054
3.96,0.1497
3.97,0.148344
3.98,0.146997
3.99,0.145664
4.00,0.144333
4.01,0.143022
4.02,0.141725
4.03,0.140435
4.04,0.139157
4.05,0.137888
4.06,0.136623
4.07,0.135367
4.08,0.134117
4.09,0.132875
4.10,0.131642
4.11,0.130418
4.12,0.129205
4.13,0.127999
4.14,0.126803
4.15,0.125615
4.16,0.124435
4.17,0.123262
4.18,0.122097
4.19,0.12094
4.20,0.11979
4.21,0.118645
4.22,0.117504
4.23,0.116368
4.24,0.115229
4.25,0.114086
4.26,0.112939
4.27,0.111788
4.28,0.11063
4.29,0.109469
4.30,0.108305
4.31,0.107138
4.32,0.105975
4.33,0.104819
4.34,0.103675
4.35,0.102553
4.36,0.101451
4.37,0.100369
4.38,0.0993014
4.39,0.0982441
4.40,0.0971919
4.41,0.0961429
4.42,0.0950966
4.43,0.0940561
4.44,0.0930246
4.45,0.0920062
4.46,0.0910013
4.47,0.0900101
4.48,0.0890318
4.49,0.0880632
4.50,0.0871063
4.51,0.0861585
4.52,0.0852198
4.53,0.0842934
4.54,0.0833767
4.55,0.0824743
4.56,0.0815855
4.57,0.0807096
4.58,0.0798467
4.59,0.0789955
4.60,0.0781553
4.61,0.0773255
4.62,0.0765061
4.63,0.0756989
4.64,0.0749028
4.65,0.0741197
4.66,0.0733508
4.67,0.0725923
4.68,0.0718455
4.69,0.071109
4.70,0.070381
4.71,0.0696613
4.72,0.0689508
4.73,0.0682507
4.74,0.0675602
4.75,0.0668821
4.76,0.0662163
4.77,0.0655622
4.78,0.0649184
4.79,0.0642836
4.80,0.0636561
4.81,0.0630361
4.82,0.062422
4.83,0.0618144
4.84,0.0612145
4.85,0.0606216
4.86,0.0600365
4.87,0.0594563
4.88,0.0588788
4.89,0.0583028
4.90,0.057726
4.91,0.0571457
4.92,0.0565669
4.93,0.0559947
4.94,0.0554337
4.95,0.0548882
4.96,0.0543622
4.97,0.0538516
4.98,0.0533513
4.99,0.0528566
5.00,0.0523619
5.01,0.0518634
5.02,0.0513633
5.03,0.0508634
5.04,0.0503674
5.05,0.0498775
5.06,0.0493967
5.07,0.0489233
5.08,0.0484561
5.09,0.047993
5.10,0.047533
5.11,0.0470739
5.12,0.0466165
5.13,0.0461597
5.14,0.0457036
5.15,0.0452492
5.16,0.0447962
5.17,0.0443443
5.18,0.0438951
5.19,0.0434493
5.20,0.0430065
5.21,0.0425689
5.22,0.0421352
5.23,0.0417049
5.24,0.0412784
5.25,0.0408547
5.26,0.0404332
5.27,0.0400143
5.28,0.0395979
5.29,0.0391833
5.30,0.0387703
5.31,0.0383587
5.32,0.037949
5.33,0.0375409
5.34,0.037135
5.35,0.0367313
5.36,0.0363301
5.37,0.0359319
5.38,0.035538
5.39,0.0351483
5.40,0.0347637
5.41,0.0343855
5.42,0.0340121
5.43,0.0336434
5.44,0.0332798
5.45,0.032919
5.46,0.0325614
5.47,0.0322073
5.48,0.0318579
5.49,0.0315142
5.50,0.0311771
5.51,0.0308465
5.52,0.0305224
5.53,0.0302046
5.54,0.0298914
5.55,0.0295827
5.56,0.029277
5.57,0.0289749
5.58,0.0286758
5.59,0.028379
5.60,0.0280844
5.61,0.0277918
5.62,0.0275021
5.63,0.0272153
5.64,0.0269318
5.65,0.0266524
5.66,0.026377
5.67,0.026106
5.68,0.0258391
5.69,0.0255754
5.70,0.025315
5.71,0.0250569
5.72,0.0248012
5.73,0.024546
5.74,0.0242909
5.75,0.0240347
5.76,0.0237774
5.77,0.0235189
5.78,0.0232601
5.79,0.0230024
5.80,0.0227458
5.81,0.0224916
5.82,0.0222395
5.83,0.0219885
5.84,0.0217383
5.85,0.0214884
5.86,0.0212383
5.87,0.0209888
5.88,0.0207411
5.89,0.0204957
5.90,0.0202538
5.91,0.0200163
5.92,0.0197813
5.93,0.0195479
5.94,0.0193142
5.95,0.0190789
5.96,0.018841
5.97,0.0186017
5.98,0.0183629
5.99,0.0181268
6.00,0.0178947
6.01,0.0176684
6.02,0.017447
6.03,0.0172292
6.04,0.0170141
6.05,0.0168001
6.06,0.0165867
6.07,0.0163744
6.08,0.0161645
6.09,0.0159577
6.10,0.0157555
6.11,0.0155583
6.12,0.0153647
6.13,0.015173
6.14,0.0149813
6.15,0.0147878
6.16,0.0145913
6.17,0.0143935
6.18,0.0141969
6.19,0.0140038
6.20,0.0138167
6.21,0.0136374
6.22,0.013465
6.23,0.0132984
6.24,0.0131359
6.25,0.0129764
6.26,0.0128186
6.27,0.0126628
6.28,0.0125093
6.29,0.0123591
6.30,0.0122123
6.31,0.0120693
6.32,0.0119297
6.33,0.0117929
6.34,0.0116579
6.35,0.0115243
6.36,0.0113915
6.37,0.0112597
6.38,0.0111298
6.39,0.011002
6.40,0.0108769
6.41,0.0107549
6.42,0.0106348
6.43,0.0105153
6.44,0.010395
6.45,0.0102724
6.46,0.0101471
6.47,0.0100203
6.48,0.00989416
6.49,0.00977086
6.50,0.00965261
6.51,0.00954091
6.52,0.00943452
6.53,0.0093317
6.54,0.0092305
6.55,0.00912911
6.56,0.00902622
6.57,0.0089223
6.58,0.00881799
6.59,0.00871426
6.60,0.00861203
6.61,0.0085118
6.62,0.008413
6.63,0.00831517
6.64,0.00821735
6.65,0.00811868
6.66,0.0080189
6.67,0.00791842
6.68,0.00781819
6.69,0.00771894
6.70,0.00762156
6.71,0.00752665
6.72,0.00743356
6.73,0.00734163
6.74,0.00724996
6.75,0.00715771
6.76,0.00706448
6.77,0.00697067
6.78,0.00687706
6.79,0.00678455
6.80,0.00669379
6.81,0.00660542
6.82,0.00651881
6.83,0.0064328
6.84,0.00634685
6.85,0.00625979
6.86,0.00617115
6.87,0.00608153
6.88,0.00599165
6.89,0.00590256
6.90,0.00581499
6.91,0.00572967
6.92,0.00564621
6.93,0.00556421
6.94,0.00548296
6.95,0.0054021
6.96,0.00532103
6.97,0.00523999
6.98,0.00515907
6.99,0.00507861
7.00,0.00499887
7.01,0.00491989
7.02,0.00484187
7.03,0.00476472
7.04,0.00468856
7.05,0.00461326
7.06,0.00453889
7.07,0.00446538
7.08,0.00439259
7.09,0.00432042
7.10,0.00424882
7.11,0.00417774
7.12,0.00410723
7.13,0.00403754
7.14,0.00396863
7.15,0.00390087
7.16,0.00383425
7.17,0.00376851
7.18,0.0037034
7.19,0.00363862
7.20,0.0035738
7.21,0.0035089
7.22,0.00344414
7.23,0.00338013
7.24,0.00331734
7.25,0.00325621
7.26,0.00319719
7.27,0.00314018
7.28,0.00308491
7.29,0.00303124
7.30,0.00297894
7.31,0.00292785
7.32,0.00287783
7.33,0.0028288
7.34,0.00278065
7.35,0.00273337
7.36,0.00268682
7.37,0.00264098
7.38,0.0025958
7.39,0.0025513
7.40,0.00250747
7.41,0.00246427
7.42,0.00242178
7.43,0.00238007
7.44,0.00233923
7.45,0.0022994
7.46,0.00226052
7.47,0.00222251
7.48,0.00218519
7.49,0.00214838
7.50,0.00211189
7.51,0.0020756
7.52,0.00203957
7.53,0.00200392
7.54,0.00196874
7.55,0.00193412
7.56,0.00190018
7.57,0.00186674
7.58,0.00183362
7.59,0.00180059
7.60,0.00176751
7.61,0.00173422
7.62,0.00170093
7.63,0.00166795
7.64,0.00163551
7.65,0.00160389
7.66,0.0015733
7.67,0.00154372
7.68,0.001515
7.69,0.00148702
7.70,0.0014597
7.71,0.00143287
7.72,0.00140616
7.73,0.0013792
7.74,0.00135158
7.75,0.00132287
7.76,0.00129292
7.77,0.00126221
7.78,0.00123148
7.79,0.00120146
7.80,0.00117285
7.81,0.00114619
7.82,0.00112126
7.83,0.00109761
7.84,0.00107481
7.85,0.00105244
7.86,0.00103016
7.87,0.00100791
7.88,0.000985708
7.89,0.000963582
7.90,0.000941559
7.91,0.000919692
7.92,0.000897994
7.93,0.000876554
7.94,0.000855433
7.95,0.000834694
7.96,0.000814389
7.97,0.000794474
7.98,0.000774902
7.99,0.000755628
8.00,0.000736594
8.01,0.000515026
8.02,0.000498179
8.03,0.000481498
8.04,0.000464954
8.05,0.000448542
8.06,0.000432249
8.07,0.000416048
8.08,0.000399931
8.09,0.000383885
8.10,0.000367889
8.11,0.000351951
8.12,0.000336188
8.13,0.000320743
8.14,0.000305749
8.15,0.000291349
8.16,0.000277681
8.17,0.000264881
8.18,0.000253091
8.19,0.000242454
8.20,0.000233101
8.21,0.000225089
8.22,0.000218098
8.23,0.00021173
8.24,0.000205575
8.25,0.000199229
8.26,0.000192417
8.27,0.000185334
8.28,0.000178301
8.29,0.000171644
8.30,0.000165682
8.31,0.000160665
8.32,0.000156541
8.33,0.000153183
8.34,0.000150468
8.35,0.000148266
8.36,0.000146455
8.37,0.000144909
8.38,0.000143501
8.39,0.000142104
8.40,0.000140593
8.41,0.000138869
8.42,0.000136934
8.43,0.000134812
8.44,0.000132533
8.45,0.000130119
8.46,0.000127602
8.47,0.000125005
8.48,0.000122358
8.49,0.000119685
8.50,0.000117014
8.51,7.905e-05
8.52,7.73015e-05
8.53,7.55809e-05
8.54,7.38876e-05
8.55,7.22208e-05
8.56,7.05806e-05
8.57,6.89657e-05
8.58,6.73761e-05
8.59,6.58118e-05
8.60,6.42717e-05
8.61,6.27553e-05
8.62,6.12624e-05
8.63,5.97922e-05
8.64,5.83441e-05
8.65,5.69184e-05
8.66,5.55136e-05
8.67,5.41297e-05
8.68,5.27665e-05
8.69,5.14234e-05
8.70,5.0099e-05
8.71,4.87937e-05
8.72,4.75073e-05
8.73,4.62386e-05
8.74,4.49869e-05
8.75,4.37526e-05
8.76,4.25348e-05
8.77,4.13333e-05
8.78,4.01494e-05
8.79,3.89826e-05
8.80,3.78328e-05
8.81,3.67006e-05
8.82,3.55861e-05
8.83,3.44901e-05
8.84,3.34121e-05
8.85,3.23529e-05
8.86,3.13119e-05
8.87,3.02901e-05
8.88,2.92876e-05
8.89,2.83047e-05
8.90,2.73412e-05
8.91,2.63977e-05
8.92,2.54742e-05
8.93,2.45713e-05
8.94,2.36884e-05
8.95,2.28266e-05
8.96,2.1986e-05
8.97,2.11663e-05
8.98,2.03684e-05
8.99,1.95922e-05
9.00,1.88378e-05
9.01,1.67478e-05
9.02,1.61157e-05
9.03,1.5505e-05
9.04,1.49155e-05
9.05,1.43469e-05
9.06,1.37987e-05
9.07,1.32707e-05
9.08,1.27625e-05
9.09,1.22739e-05
9.10,1.18045e-05
9.11,1.13538e-05
9.12,1.09216e-05
9.13,1.05077e-05
9.14,1.01116e-05
9.15,9.73287e-06
9.16,9.37144e-06
9.17,9.02694e-06
9.18,8.69871e-06
9.19,8.38681e-06
9.20,8.09073e-06
9.21,7.81022e-06
9.22,7.54493e-06
9.23,7.2943e-06
9.24,7.05826e-06
9.25,6.83648e-06
9.26,6.62837e-06
9.27,6.43368e-06
9.28,6.25167e-06
9.29,6.08195e-06
9.30,5.92373e-06
9.31,5.77665e-06
9.32,5.64008e-06
9.33,5.51344e-06
9.34,5.39636e-06
9.35,5.28798e-06
9.36,5.18799e-06
9.37,5.09578e-06
9.38,5.01077e-06
9.39,4.93236e-06
9.40,4.86006e-06
9.41,4.79331e-06
9.42,4.73157e-06
9.43,4.67421e-06
9.44,4.62076e-06
9.45,4.57063e-06
9.46,4.52332e-06
9.47,4.47814e-06
9.48,4.43467e-06
9.49,4.08128e-06
9.50,4.35045e-06
9.51,0
9.52,0
9.53,0
9.54,0
9.55,0
9.56,0
9.57,0
9.58,0
9.59,0
9.60,0
9.61,0
9.62,0
9.63,0
9.64,0
9.65,0
9.66,0
9.67,0
9.68,0
9.69,0
9.70,0
9.71,0
9.72,0
9.73,0
9.74,0
9.75,0
9.76,0
9.77,0
9.78,0
9.79,0
9.80,0
9.81,0
9.82,0
9.83,0
9.84,0
9.85,0
9.86,0
9.87,0
9.88,0
9.89,0
9.90,0
9.91,0
9.92,0
9.93,0
9.94,0
9.95,0
9.96,0
9.97,0
9.98,0
9.99,0
10.0,0
